Frequency	Mean Amplitude	Error Amplitude	Mean Phaseshift	Error  Phaseshift	Temperature	Error  Temperature
1.250000E+2	4.700276E-5	2.330948E-6	-1.990639E+0	2.769062E-1	5.566614E+1	7.739451E-3
1.252500E+2	3.412281E-5	7.476380E-7	-1.248274E-1	4.266469E-1	5.583557E+1	3.278094E-2
1.255000E+2	2.149646E-5	4.061056E-7	2.889226E-1	3.700621E-1	5.605120E+1	3.908231E-2
1.257500E+2	1.070747E-5	3.990766E-7	-1.593541E-1	3.991778E-1	5.615901E+1	3.743847E-2
1.260000E+2	7.006525E-6	3.517333E-7	6.831997E-2	4.153188E-1	5.630533E+1	2.924652E-2
1.262500E+2	6.060330E-6	4.582016E-7	1.733680E-1	3.350469E-1	5.640544E+1	1.524495E-2
1.265000E+2	4.402583E-6	4.105287E-7	2.276733E-1	3.184522E-1	5.643625E+1	1.428173E-15
1.267500E+2	3.539895E-6	3.567042E-7	-5.950795E-2	2.469916E-1	5.651839E+1	1.902779E-2
1.270000E+2	3.428074E-6	3.378092E-7	-3.978768E-2	1.825929E-1	5.678023E+1	2.462611E-2
1.272500E+2	3.106603E-6	2.796041E-7	-9.696031E-2	1.341045E-1	5.671862E+1	2.595250E-2
1.275000E+2	3.279860E-6	2.591628E-7	-1.376309E-1	9.251998E-2	5.657487E+1	2.306304E-2
1.277500E+2	3.055680E-6	2.010919E-7	-3.738186E-2	7.704233E-2	5.653380E+1	2.036585E-2
1.280000E+2	3.032173E-6	1.630794E-7	-2.363387E-3	6.304572E-2	5.645935E+1	1.471174E-2
1.282500E+2	3.134776E-6	1.638443E-7	-5.222834E-2	5.661904E-2	5.645679E+1	1.016330E-2
1.285000E+2	3.170053E-6	1.294252E-7	-8.888312E-2	4.697950E-2	5.645165E+1	8.846929E-3
1.287500E+2	3.206744E-6	1.716852E-7	-1.045205E-3	6.259210E-2	5.645679E+1	1.016330E-2
1.290000E+2	3.469780E-6	3.026526E-7	-3.436094E-1	1.177321E-1	5.647732E+1	1.407361E-2
1.292500E+2	3.527047E-6	3.086422E-7	-2.757445E-1	1.234023E-1	5.644138E+1	5.159634E-3
1.295000E+2	3.685946E-6	9.288482E-8	-3.469285E-2	3.499211E-2	5.646705E+1	1.231846E-2
1.297500E+2	3.511027E-6	8.241890E-8	-4.124691E-2	2.379301E-2	5.647732E+1	1.407361E-2
1.300000E+2	3.544049E-6	8.636397E-8	-7.316448E-2	2.679327E-2	5.649272E+1	1.623441E-2
1.302500E+2	3.741189E-6	7.268623E-8	-4.747361E-2	2.244474E-2	5.656973E+1	2.278433E-2
1.305000E+2	3.832602E-6	6.414020E-8	-1.966889E-2	1.813378E-2	5.659540E+1	2.403526E-2
1.307500E+2	4.019533E-6	8.802908E-8	-1.240013E-2	1.721449E-2	5.665701E+1	2.576719E-2
1.310000E+2	3.978460E-6	1.911674E-7	-8.314831E-2	5.082964E-2	5.675969E+1	2.524533E-2
1.312500E+2	4.243181E-6	5.455057E-8	-1.587754E-2	1.598252E-2	5.679050E+1	2.424479E-2
1.315000E+2	4.229478E-6	9.097981E-8	-1.842830E-2	2.355367E-2	5.680590E+1	2.357676E-2
1.317500E+2	4.371022E-6	4.232683E-8	-2.941146E-2	1.271716E-2	5.684697E+1	2.114821E-2
1.320000E+2	3.894015E-6	5.046942E-8	-2.146149E-2	1.936032E-2	5.685724E+1	2.036585E-2
1.322500E+2	4.271523E-6	3.996026E-8	-8.227379E-3	9.777764E-3	5.689318E+1	1.686182E-2
1.325000E+2	4.797094E-6	4.168626E-8	-2.689138E-3	1.002843E-2	5.692398E+1	1.231846E-2
1.327500E+2	4.959007E-6	6.334864E-8	1.657317E-2	1.667331E-2	5.694965E+1	5.159634E-3
1.330000E+2	4.861337E-6	7.169018E-8	3.644271E-2	1.358600E-2	5.695479E+1	0.000000E+0
1.332500E+2	4.968878E-6	1.264906E-7	2.571818E-2	3.700372E-2	5.695479E+1	0.000000E+0
1.335000E+2	5.281610E-6	4.366396E-8	9.330507E-3	1.510631E-2	5.695479E+1	0.000000E+0
1.337500E+2	5.264465E-6	6.912370E-8	1.582273E-2	8.697090E-3	5.695479E+1	0.000000E+0
1.340000E+2	5.654841E-6	5.417955E-8	2.750211E-2	9.754831E-3	5.696249E+1	7.739451E-3
1.342500E+2	5.815415E-6	2.931082E-8	8.273427E-3	7.002831E-3	5.698559E+1	1.524495E-2
1.345000E+2	6.313451E-6	3.117227E-8	3.473175E-2	5.965516E-3	5.714731E+1	3.373548E-2
1.347500E+2	6.620436E-6	1.776042E-7	1.939256E-1	3.756096E-2	5.700869E+1	1.985286E-2
1.350000E+2	6.771542E-6	5.317474E-8	5.764206E-2	6.819562E-3	5.696249E+1	7.739451E-3
1.352500E+2	6.975484E-6	8.135351E-8	4.083182E-2	1.022792E-2	5.696249E+1	7.739451E-3
1.355000E+2	7.900904E-6	7.581927E-8	7.095121E-2	1.079280E-2	5.696249E+1	7.739451E-3
1.357500E+2	8.205690E-6	4.239832E-8	7.290812E-2	4.252881E-3	5.696249E+1	7.739451E-3
1.360000E+2	8.190553E-6	8.345854E-8	6.712927E-2	1.257721E-2	5.696249E+1	7.739451E-3
1.362500E+2	8.817833E-6	1.112616E-7	9.962263E-2	1.059493E-2	5.697789E+1	1.327039E-2
1.365000E+2	9.382571E-6	1.067433E-7	9.187853E-2	9.398629E-3	5.696249E+1	7.739451E-3
1.367500E+2	1.040836E-5	9.335087E-8	7.647656E-2	5.318314E-3	5.696249E+1	7.739451E-3
1.370000E+2	1.133628E-5	1.051337E-7	1.343778E-1	9.752392E-3	5.699329E+1	1.695629E-2
1.372500E+2	1.227712E-5	1.165187E-7	1.292500E-1	9.265580E-3	5.695479E+1	0.000000E+0
1.375000E+2	1.353873E-5	7.015278E-8	1.535612E-1	5.637094E-3	5.712421E+1	3.226525E-2
1.377500E+2	1.523488E-5	1.004380E-7	1.721487E-1	5.908668E-3	5.736294E+1	3.903631E-2
1.380000E+2	1.731524E-5	1.121825E-7	1.793097E-1	5.838595E-3	5.760937E+1	2.854169E-2
1.382500E+2	1.960786E-5	2.225527E-7	2.379580E-1	1.184591E-2	5.767098E+1	2.111041E-2
1.385000E+2	2.281103E-5	1.807179E-7	3.003694E-1	8.984938E-3	5.773259E+1	0.000000E+0
1.387500E+2	2.784535E-5	2.918488E-7	3.606572E-1	8.266259E-3	5.780447E+1	1.800705E-2
1.390000E+2	3.482061E-5	2.727369E-7	4.749907E-1	9.980334E-3	5.794309E+1	2.559095E-2
1.392500E+2	4.540816E-5	3.979183E-7	6.238810E-1	5.197264E-3	5.804577E+1	2.548671E-2
1.395000E+2	6.102411E-5	6.876780E-7	9.308925E-1	8.756645E-3	5.803550E+1	2.568441E-2
1.397500E+2	7.403251E-5	6.798389E-7	1.403522E+0	1.322249E-2	5.788661E+1	2.381270E-2
1.400000E+2	6.693948E-5	4.841432E-7	1.982003E+0	1.793574E-2	5.785581E+1	2.218043E-2
1.402500E+2	5.032249E-5	5.087609E-7	2.349239E+0	8.518642E-3	5.785067E+1	2.185396E-2
1.405000E+2	3.795846E-5	3.181757E-7	2.602728E+0	8.284455E-3	5.794822E+1	2.568441E-2
1.407500E+2	2.921950E-5	1.787573E-7	2.706224E+0	5.444558E-3	5.807144E+1	2.479847E-2
1.410000E+2	2.472058E-5	2.338382E-7	2.778956E+0	9.194422E-3	5.815872E+1	1.994317E-2
1.412500E+2	2.074387E-5	1.717838E-7	2.843624E+0	1.046797E-2	5.823059E+1	1.016330E-2
1.415000E+2	1.733843E-5	1.179844E-7	2.875369E+0	3.720591E-3	5.814331E+1	2.114821E-2
1.417500E+2	1.512291E-5	5.644496E-8	2.921193E+0	4.006582E-3	5.802010E+1	2.590116E-2
1.420000E+2	1.336029E-5	1.244265E-7	2.957882E+0	6.876153E-3	5.792768E+1	2.524533E-2
1.422500E+2	1.239374E-5	7.178012E-8	2.993403E+0	6.703783E-3	5.791228E+1	2.479847E-2
1.425000E+2	1.149540E-5	8.661217E-8	3.023690E+0	7.327727E-3	5.786094E+1	2.249032E-2
1.427500E+2	1.005360E-5	6.859375E-8	2.973230E+0	8.147120E-3	5.786608E+1	2.278433E-2
1.430000E+2	9.008945E-6	5.448658E-8	3.004310E+0	8.843643E-3	5.788148E+1	2.357676E-2
1.432500E+2	8.803401E-6	7.145041E-8	3.032478E+0	6.823072E-3	5.792255E+1	2.510786E-2
1.435000E+2	8.158738E-6	4.103710E-8	3.034986E+0	8.009917E-3	5.806630E+1	2.495898E-2
1.437500E+2	7.608569E-6	6.305639E-8	3.031741E+0	8.462518E-3	5.815872E+1	1.994317E-2
1.440000E+2	7.233304E-6	7.315681E-8	2.447033E+0	4.234384E-1	5.819979E+1	1.556466E-2
1.442500E+2	6.547916E-6	9.026050E-8	2.424329E+0	4.227943E-1	5.824086E+1	7.260249E-3
1.445000E+2	6.972044E-6	4.550939E-7	1.208179E+0	5.980884E-1	5.824086E+1	7.260249E-3
1.447500E+2	6.745640E-6	4.436520E-7	9.008303E-1	5.965910E-1	5.825113E+1	7.140866E-16
1.450000E+2	5.805340E-6	5.393665E-8	2.768498E+0	3.094645E-1	5.825113E+1	7.140866E-16
1.452500E+2	9.446632E-6	1.063235E-6	-1.033144E-1	5.935338E-1	5.825113E+1	7.140866E-16
1.455000E+2	5.204291E-6	9.953234E-8	-8.213164E-3	7.071318E-1	5.825113E+1	7.140866E-16
1.457500E+2	8.364197E-6	7.958927E-7	2.532601E-1	5.215582E-1	5.825883E+1	7.739451E-3
1.460000E+2	6.373130E-6	5.518254E-7	-1.070479E-2	5.479020E-1	5.825883E+1	7.739451E-3
1.462500E+2	4.925363E-6	5.764649E-7	-4.633217E-1	5.867252E-1	5.832044E+1	2.227026E-2
1.465000E+2	6.287888E-6	6.439940E-7	8.421706E-1	5.409982E-1	5.825113E+1	7.140866E-16
1.467500E+2	5.408705E-6	4.879422E-7	2.875656E-1	5.766038E-1	5.827423E+1	1.327039E-2
1.470000E+2	4.308069E-6	1.764846E-7	5.864479E-1	6.634682E-1	5.828963E+1	1.695629E-2
1.472500E+2	4.959111E-6	5.077667E-7	5.492734E-1	5.789622E-1	5.833584E+1	2.435161E-2
1.475000E+2	4.955661E-6	5.287173E-7	3.889915E-2	5.596732E-1	5.835124E+1	2.617720E-2
1.477500E+2	5.703146E-6	5.009659E-7	-2.485088E-1	4.372235E-1	5.840515E+1	3.115069E-2
1.480000E+2	5.101985E-6	4.718382E-7	3.097283E-1	5.155797E-1	5.851296E+1	3.693916E-2
1.482500E+2	5.436607E-6	6.689516E-7	2.794022E-1	5.782524E-1	5.865158E+1	3.906698E-2
1.485000E+2	3.861914E-6	2.465417E-7	-5.119667E-1	6.543347E-1	5.856687E+1	3.838643E-2
1.487500E+2	3.509303E-6	3.198100E-7	6.646832E-2	6.539417E-1	5.872089E+1	3.823007E-2
1.490000E+2	3.652236E-6	2.428369E-7	-2.149676E-4	6.919128E-1	5.864388E+1	3.908231E-2
1.492500E+2	3.195290E-6	9.240812E-8	1.174942E+0	6.264123E-1	5.879790E+1	3.571905E-2
1.495000E+2	3.432338E-6	1.771198E-7	2.837761E-1	6.845431E-1	5.895962E+1	2.227026E-2
1.497500E+2	3.019944E-6	1.898843E-7	4.307750E-3	6.450020E-1	5.880560E+1	3.536514E-2
1.500000E+2	2.556566E-6	9.695208E-8	6.294275E-1	6.532967E-1	5.858227E+1	3.865079E-2
1.502500E+2	2.905533E-6	3.344282E-7	-3.604349E-2	5.868317E-1	5.838975E+1	2.991476E-2
1.505000E+2	2.952289E-6	9.251288E-8	-2.881507E-1	6.813463E-1	5.832814E+1	2.334699E-2
1.507500E+2	2.632739E-6	7.576344E-8	2.977543E-1	6.938562E-1	5.835124E+1	2.617720E-2
1.510000E+2	2.662843E-6	5.362662E-8	-2.848146E-1	6.975314E-1	5.851296E+1	3.693916E-2
1.512500E+2	2.565144E-6	3.620792E-8	-5.976234E-1	6.967527E-1	5.861308E+1	3.899025E-2
1.515000E+2	2.535928E-6	2.941704E-8	-1.518303E+0	6.162111E-1	5.882100E+1	3.459457E-2
1.517500E+2	2.361915E-6	2.524208E-8	3.312476E-1	7.063869E-1	5.889031E+1	2.991476E-2
1.520000E+2	2.417241E-6	2.400119E-8	-1.827167E+0	5.653407E-1	5.886721E+1	3.172231E-2
1.522500E+2	2.330305E-6	1.610260E-8	-1.214047E+0	6.514539E-1	5.896732E+1	2.111041E-2
1.525000E+2	2.326600E-6	2.228134E-8	-2.751180E+0	3.102898E-1	5.893652E+1	2.529273E-2
1.527500E+2	2.336773E-6	2.278784E-8	-5.959194E-1	6.966625E-1	5.898273E+1	1.847769E-2
1.530000E+2	1.914619E-6	2.249073E-8	-1.207757E+0	6.464973E-1	5.903407E+1	5.159634E-3
1.532500E+2	1.692969E-6	2.248381E-8	1.891826E+0	5.647827E-1	5.899813E+1	1.524495E-2
1.535000E+2	1.682177E-6	3.736754E-8	1.554274E+0	6.105346E-1	5.886721E+1	3.172231E-2
1.537500E+2	2.723462E-6	4.509178E-8	-2.987006E+0	1.143481E-2	5.871319E+1	3.838643E-2
1.540000E+2	1.860363E-6	2.802739E-8	3.034967E+0	1.662639E-2	5.847446E+1	3.536514E-2
1.542500E+2	1.491973E-6	2.799588E-8	2.723379E+0	3.072087E-1	5.845135E+1	3.417649E-2
1.545000E+2	1.619013E-6	2.743091E-8	1.843985E+0	5.608584E-1	5.832814E+1	2.334699E-2
1.547500E+2	2.047248E-6	1.181404E-8	-2.140745E+0	5.091110E-1	5.836664E+1	2.779745E-2
1.550000E+2	2.019464E-6	1.938373E-8	-1.816011E+0	5.687187E-1	5.841285E+1	3.172231E-2
